Title: sol6
Assay date: 11/01/2022 09:41:13
Instrument: Spectrophotomètre EASYSPEC S/N: 83004895

Settings:
Start WL: 400 nm
End WL: 750 nm
Bandwidth: 5 nm
Step: 1 nm
Gain auto: yes
Averaging time: 0,1 s

Data
	Curve #1	
nm	ABS
400	0,355663
401	0,359364
402	0,365223
403	0,371332
404	0,376615
405	0,381842
406	0,387186
407	0,392619
408	0,39824
409	0,404234
410	0,410468
411	0,41657
412	0,422547
413	0,428389
414	0,433955
415	0,439204
416	0,444315
417	0,449204
418	0,453712
419	0,457963
420	0,462189
421	0,466323
422	0,470496
423	0,474876
424	0,479228
425	0,483241
426	0,486971
427	0,490327
428	0,493221
429	0,495752
430	0,498084
431	0,500119
432	0,501863
433	0,503278
434	0,504363
435	0,505046
436	0,505454
437	0,505489
438	0,505208
439	0,504629
440	0,503858
441	0,502799
442	0,501726
443	0,50047
444	0,498862
445	0,496706
446	0,494118
447	0,490674
448	0,486651
449	0,482485
450	0,478418
451	0,474157
452	0,470179
453	0,466242
454	0,461749
455	0,457242
456	0,452525
457	0,447298
458	0,441759
459	0,436446
460	0,430061
461	0,423575
462	0,416813
463	0,409676
464	0,402174
465	0,395122
466	0,387788
467	0,380467
468	0,373315
469	0,366023
470	0,35846
471	0,350932
472	0,343611
473	0,336056
474	0,328558
475	0,321297
476	0,31414
477	0,306766
478	0,299918
479	0,293358
480	0,286736
481	0,280181
482	0,27394
483	0,26748
484	0,260927
485	0,25466
486	0,248459
487	0,242127
488	0,235944
489	0,229842
490	0,223504
491	0,217253
492	0,211356
493	0,205509
494	0,199845
495	0,194636
496	0,189599
497	0,184472
498	0,179593
499	0,174942
500	0,170273
501	0,16578
502	0,161641
503	0,157594
504	0,153529
505	0,149691
506	0,145973
507	0,142274
508	0,138778
509	0,135577
510	0,132558
511	0,129797
512	0,127398
513	0,125212
514	0,123143
515	0,121222
516	0,119362
517	0,117534
518	0,115904
519	0,114509
520	0,113279
521	0,112281
522	0,111377
523	0,110443
524	0,109608
525	0,108946
526	0,108375
527	0,108021
528	0,107981
529	0,10802
530	0,108211
531	0,10873
532	0,109455
533	0,11041
534	0,111979
535	0,113785
536	0,115404
537	0,117053
538	0,118522
539	0,11921
540	0,119711
541	0,120578
542	0,121476
543	0,122313
544	0,123925
545	0,12571
546	0,127265
547	0,129128
548	0,131632
549	0,134017
550	0,137036
551	0,140722
552	0,144064
553	0,146753
554	0,149358
555	0,150725
556	0,151497
557	0,152772
558	0,154966
559	0,157416
560	0,161084
561	0,165026
562	0,168909
563	0,172491
564	0,176196
565	0,179779
566	0,183593
567	0,187586
568	0,191865
569	0,196328
570	0,201005
571	0,206027
572	0,211305
573	0,216661
574	0,222222
575	0,227916
576	0,233563
577	0,239349
578	0,245479
579	0,251755
580	0,258169
581	0,264855
582	0,271466
583	0,277652
584	0,283478
585	0,288806
586	0,29341
587	0,2974
588	0,300866
589	0,303653
590	0,305692
591	0,306967
592	0,307328
593	0,30669
594	0,304916
595	0,30199
596	0,298005
597	0,292933
598	0,286629
599	0,279368
600	0,271393
601	0,262294
602	0,252375
603	0,24217
604	0,231461
605	0,219969
606	0,208604
607	0,197185
608	0,185271
609	0,173386
610	0,162083
611	0,150625
612	0,139417
613	0,129084
614	0,119312
615	0,109722
616	0,101114
617	0,093166
618	0,085417
619	0,0781548
620	0,0716511
621	0,0653804
622	0,0595023
623	0,0542626
624	0,049415
625	0,0447719
626	0,0405275
627	0,0366388
628	0,0329773
629	0,0296444
630	0,0267208
631	0,0240734
632	0,0216842
633	0,0195413
634	0,0175859
635	0,0157801
636	0,0141434
637	0,0126696
638	0,0113702
639	0,0102308
640	0,00920109
641	0,00827696
642	0,00742429
643	0,00662586
644	0,0058816
645	0,00521613
646	0,00460782
647	0,00406906
648	0,00359047
649	0,00315858
650	0,00276405
651	0,0024186
652	0,0021116
653	0,00184548
654	0,00161144
655	0,00140565
656	0,0012168
657	0,00104512
658	0,000882051
659	0,000729327
660	0,000579993
661	0,000440069
662	0,000305855
663	0,000185144
664	7,97048e-05
665	-4,40154e-06
666	-7,44491e-05
667	-0,000131322
668	-0,000184904
669	-0,000233351
670	-0,000282088
671	-0,000331232
672	-0,0003805
673	-0,000427097
674	-0,000471526
675	-0,000513607
676	-0,000553162
677	-0,000590058
678	-0,000619414
679	-0,000644392
680	-0,000664591
681	-0,000680094
682	-0,00069123
683	-0,000702067
684	-0,000712702
685	-0,00072348
686	-0,000729047
687	-0,000728803
688	-0,000724522
689	-0,000715886
690	-0,000701867
691	-0,000692867
692	-0,0006905
693	-0,00069175
694	-0,000698278
695	-0,000711333
696	-0,000723017
697	-0,000731628
698	-0,000739658
699	-0,000745861
700	-0,000750301
701	-0,000757648
702	-0,000766842
703	-0,000773521
704	-0,000780452
705	-0,000787778
706	-0,000789381
707	-0,000788309
708	-0,000787634
709	-0,000781929
710	-0,000776927
711	-0,000782128
712	-0,000788636
713	-0,000793724
714	-0,000800061
715	-0,000813957
716	-0,000830761
717	-0,000865437
718	-0,000903358
719	-0,000947053
720	-0,000983056
721	-0,000980879
722	-0,000932982
723	-0,000873344
724	-0,000798928
725	-0,000619945
726	-0,000414691
727	-0,000215663
728	-5,75004e-06
729	3,01472e-05
730	-0,000275786
731	-0,000690009
732	-0,00110085
733	-0,00158654
734	-0,0017463
735	-0,00149957
736	-0,00118095
737	-0,000946453
738	-0,000641683
739	-0,000537071
740	-0,000617658
741	-0,000804443
742	-0,00097299
743	-0,00117494
744	-0,00135112
745	-0,00146447
746	-0,00131438
747	-0,00118133
748	-0,000791769
749	0,000158325
750	0,00206211
